Energy, Data
0,0
1.46556,0
2.93112,0
4.39668,0
5.86224,0
7.3278,0
8.79336,0
10.2589,0
11.7245,0
13.19,0
14.6556,0
16.1212,0
17.5867,0
19.0523,0
20.5178,1
21.9834,0
23.4489,0
24.9145,6
26.3801,156
27.8456,178
29.3112,179
30.7767,199
32.2423,210
33.7079,306
35.1734,396
36.639,536
38.1045,869
39.5701,1146
41.0357,1410
42.5012,1686
43.9668,1657
45.4323,1531
46.8979,1276
48.3635,1092
49.829,771
51.2946,583
52.7601,443
54.2257,360
55.6913,296
57.1568,296
58.6224,261
60.0879,222
61.5535,268
63.0191,245
64.4846,214
65.9502,237
67.4157,234
68.8813,242
70.3468,238
71.8124,250
73.278,238
74.7435,231
76.2091,257
77.6746,273
79.1402,244
80.6058,281
82.0713,277
83.5369,303
85.0024,333
86.468,323
87.9336,367
89.3991,403
90.8647,472
92.3302,504
93.7958,493
95.2614,552
96.7269,531
98.1925,578
99.658,585
101.124,498
102.589,539
104.055,510
105.52,474
106.986,496
108.451,473
109.917,431
111.383,393
112.848,396
114.314,372
115.779,340
117.245,362
118.71,334
120.176,344
121.641,325
123.107,335
124.573,315
126.038,325
127.504,309
128.969,318
130.435,321
131.9,354
133.366,324
134.831,325
136.297,335
137.763,335
139.228,322
140.694,337
142.159,348
143.625,335
145.09,322
146.556,363
148.021,359
149.487,377
150.953,334
152.418,343
153.884,345
155.349,329
156.815,375
158.28,360
159.746,352
161.212,321
162.677,356
164.143,358
165.608,302
167.074,351
168.539,310
170.005,343
171.47,360
172.936,322
174.402,352
175.867,329
177.333,314
178.798,298
180.264,342
181.729,317
183.195,317
184.66,301
186.126,319
187.592,312
189.057,289
190.523,306
191.988,312
193.454,343
194.919,338
196.385,303
197.851,338
199.316,330
200.782,320
202.247,348
203.713,390
205.178,369
206.644,345
208.109,402
209.575,376
211.041,412
212.506,360
213.972,417
215.437,448
216.903,439
218.368,444
219.834,404
221.299,415
222.765,458
224.231,432
225.696,424
227.162,416
228.627,426
230.093,429
231.558,414
233.024,433
234.49,431
235.955,482
237.421,417
238.886,411
240.352,454
241.817,418
243.283,423
244.748,404
246.214,430
247.68,376
249.145,438
250.611,405
252.076,420
253.542,394
255.007,400
256.473,408
257.938,448
259.404,390
260.87,407
262.335,412
263.801,378
265.266,379
266.732,374
268.197,397
269.663,364
271.128,376
272.594,340
274.06,393
275.525,377
276.991,353
278.456,386
279.922,343
281.387,363
282.853,362
284.319,357
285.784,389
287.25,350
288.715,349
290.181,385
291.646,394
293.112,388
294.577,412
296.043,353
297.509,361
298.974,343
300.44,332
301.905,339
303.371,313
304.836,324
306.302,383
307.767,394
309.233,309
310.699,330
312.164,332
313.63,337
315.095,348
316.561,338
318.026,350
319.492,326
320.957,340
322.423,332
323.889,327
325.354,341
326.82,310
328.285,320
329.751,336
331.216,315
332.682,314
334.148,370
335.613,316
337.079,327
338.544,324
340.01,304
341.475,301
342.941,335
344.406,315
345.872,300
347.338,318
348.803,320
350.269,313
351.734,340
353.2,315
354.665,305
356.131,306
357.596,321
359.062,328
360.528,328
361.993,334
363.459,297
364.924,332
366.39,313
367.855,310
369.321,332
370.787,319
372.252,287
373.718,325
375.183,313
376.649,308
378.114,291
379.58,305
381.045,311
382.511,301
383.977,308
385.442,345
386.908,327
388.373,283
389.839,321
391.304,310
392.77,311
394.235,320
395.701,313
397.167,300
398.632,342
400.098,324
401.563,318
403.029,309
404.494,344
405.96,313
407.426,327
408.891,333
410.357,302
411.822,313
413.288,316
414.753,334
416.219,336
417.684,296
419.15,345
420.616,353
422.081,333
423.547,343
425.012,350
426.478,306
427.943,353
429.409,362
430.874,330
432.34,328
433.806,316
435.271,365
436.737,339
438.202,346
439.668,325
441.133,344
442.599,312
444.064,320
445.53,303
446.996,329
448.461,319
449.927,336
451.392,322
452.858,312
454.323,315
455.789,290
457.255,312
458.72,302
460.186,275
461.651,291
463.117,270
464.582,268
466.048,253
467.513,264
468.979,239
470.445,216
471.91,179
473.376,202
474.841,210
476.307,196
477.772,202
479.238,201
480.703,205
482.169,205
483.635,169
485.1,164
486.566,182
488.031,174
489.497,183
490.962,164
492.428,185
493.893,172
495.359,190
496.825,145
498.29,151
499.756,139
501.221,156
502.687,138
504.152,152
505.618,148
507.084,118
508.549,152
510.015,138
511.48,118
512.946,139
514.411,128
515.877,144
517.342,131
518.808,122
520.274,125
521.739,114
523.205,122
524.67,109
526.136,123
527.601,86
529.067,117
530.532,111
531.998,104
533.464,120
534.929,106
536.395,103
537.86,99
539.326,101
540.791,93
542.257,104
543.723,104
545.188,112
546.654,108
548.119,100
549.585,105
551.05,110
552.516,110
553.981,88
555.447,91
556.913,93
558.378,85
559.844,91
561.309,99
562.775,117
564.24,96
565.706,94
567.171,100
568.637,98
570.103,83
571.568,82
573.034,91
574.499,96
575.965,112
577.43,119
578.896,111
580.362,112
581.827,105
583.293,141
584.758,131
586.224,149
587.689,167
589.155,203
590.62,203
592.086,240
593.552,262
595.017,305
596.483,334
597.948,355
599.414,430
600.879,492
602.345,516
603.81,555
605.276,621
606.742,688
608.207,765
609.673,906
611.138,896
612.604,941
614.069,1080
615.535,1157
617,1296
618.466,1331
619.932,1351
621.397,1471
622.863,1482
624.328,1590
625.794,1587
627.259,1684
628.725,1661
630.191,1694
631.656,1763
633.122,1772
634.587,1861
636.053,1736
637.518,1742
638.984,1824
640.449,1781
641.915,1729
643.381,1658
644.846,1698
646.312,1580
647.777,1597
649.243,1500
650.708,1439
652.174,1347
653.639,1296
655.105,1262
656.571,1267
658.036,1202
659.502,1103
660.967,1111
662.433,1001
663.898,1012
665.364,893
666.83,873
668.295,820
669.761,818
671.226,715
672.692,666
674.157,627
675.623,564
677.088,592
678.554,553
680.02,522
681.485,466
682.951,413
684.416,452
685.882,449
687.347,384
688.813,398
690.278,335
691.744,300
693.21,297
694.675,267
696.141,248
697.606,259
699.072,203
700.537,200
702.003,193
703.469,167
704.934,186
706.4,145
707.865,149
709.331,136
710.796,113
712.262,107
713.727,104
715.193,91
716.659,75
718.124,81
719.59,67
721.055,54
722.521,57
723.986,50
725.452,55
726.917,36
728.383,37
729.849,23
731.314,25
732.78,34
734.245,30
735.711,18
737.176,29
738.642,26
740.107,14
741.573,21
743.039,14
744.504,14
745.97,17
747.435,18
748.901,12
750.366,15
751.832,7
753.297,14
754.763,13
756.229,16
757.694,15
759.16,13
760.625,18
762.091,14
763.556,7
765.022,10
766.488,6
767.953,11
769.419,11
770.884,14
772.35,17
773.815,12
775.281,10
776.746,9
778.212,10
779.678,12
781.143,12
782.609,7
784.074,11
785.54,18
787.005,12
788.471,9
789.937,12
791.402,16
792.868,13
794.333,14
795.799,5
797.264,12
798.73,10
800.195,10
801.661,11
803.127,19
804.592,13
806.058,9
807.523,16
808.989,15
810.454,16
811.92,19
813.385,6
814.851,7
816.317,11
817.782,18
819.248,12
820.713,14
822.179,11
823.644,10
825.11,11
826.576,13
828.041,11
829.507,14
830.972,8
832.438,11
833.903,6
835.369,15
836.834,12
838.3,8
839.766,13
841.231,15
842.697,8
844.162,13
845.628,11
847.093,13
848.559,15
850.024,7
851.49,8
852.956,10
854.421,10
855.887,14
857.352,9
858.818,10
860.283,7
861.749,8
863.214,5
864.68,16
866.146,6
867.611,7
869.077,7
870.542,13
872.008,10
873.473,7
874.939,10
876.404,10
877.87,3
879.336,13
880.801,11
882.267,14
883.732,9
885.198,15
886.663,11
888.129,8
889.595,7
891.06,16
892.526,5
893.991,10
895.457,9
896.922,12
898.388,16
899.853,6
901.319,7
902.785,11
904.25,11
905.716,8
907.181,8
908.647,14
910.112,10
911.578,16
913.043,13
914.509,9
915.975,11
917.44,10
918.906,9
920.371,7
921.837,14
923.302,14
924.768,7
926.234,11
927.699,10
929.165,7
930.63,11
932.096,8
933.561,12
935.027,12
936.492,17
937.958,12
939.424,14
940.889,10
942.355,13
943.82,13
945.286,12
946.751,19
948.217,14
949.682,12
951.148,12
952.614,19
954.079,12
955.545,7
957.01,10
958.476,10
959.941,8
961.407,10
962.872,12
964.338,9
965.804,10
967.269,7
968.735,7
970.2,11
971.666,14
973.131,11
974.597,13
976.063,10
977.528,10
978.994,18
980.459,14
981.925,11
983.39,9
984.856,6
986.321,9
987.787,12
989.253,13
990.718,5
992.184,10
993.649,14
995.115,13
996.58,14
998.046,12
999.511,13
1000.98,8
1002.44,10
1003.91,5
1005.37,8
1006.84,11
1008.3,7
1009.77,8
1011.24,8
1012.7,7
1014.17,15
1015.63,12
1017.1,9
1018.56,7
1020.03,9
1021.49,9
1022.96,13
1024.43,6
1025.89,6
1027.36,12
1028.82,9
1030.29,13
1031.75,7
1033.22,16
1034.68,8
1036.15,9
1037.62,8
1039.08,7
1040.55,4
1042.01,12
1043.48,10
1044.94,11
1046.41,5
1047.88,7
1049.34,12
1050.81,4
1052.27,7
1053.74,8
1055.2,7
1056.67,6
1058.13,10
1059.6,9
1061.06,6
1062.53,3
1064,6
1065.46,5
1066.93,11
1068.39,3
1069.86,4
1071.32,3
1072.79,10
1074.26,9
1075.72,9
1077.19,5
1078.65,10
1080.12,5
1081.58,4
1083.05,5
1084.51,7
1085.98,3
1087.45,10
1088.91,9
1090.38,6
1091.84,7
1093.31,11
1094.77,10
1096.24,9
1097.7,7
1099.17,9
1100.64,7
1102.1,4
1103.57,3
1105.03,6
1106.5,5
1107.96,4
1109.43,7
1110.89,5
1112.36,11
1113.83,7
1115.29,5
1116.76,5
1118.22,4
1119.69,7
1121.15,12
1122.62,2
1124.08,5
1125.55,3
1127.02,10
1128.48,3
1129.95,8
1131.41,6
1132.88,8
1134.34,4
1135.81,6
1137.27,3
1138.74,7
1140.21,11
1141.67,5
1143.14,5
1144.6,8
1146.07,12
1147.53,6
1149,3
1150.46,3
1151.93,6
1153.4,3
1154.86,10
1156.33,7
1157.79,7
1159.26,2
1160.72,5
1162.19,3
1163.65,6
1165.12,7
1166.59,6
1168.05,9
1169.52,6
1170.98,9
1172.45,7
1173.91,2
1175.38,4
1176.84,8
1178.31,9
1179.78,8
1181.24,7
1182.71,8
1184.17,14
1185.64,10
1187.1,7
1188.57,8
1190.03,11
1191.5,9
1192.97,7
1194.43,13
1195.9,10
1197.36,9
1198.83,2
1200.29,13
1201.76,8
1203.22,9
1204.69,12
1206.16,7
1207.62,9
1209.09,7
1210.55,10
1212.02,6
1213.48,9
1214.95,12
1216.41,8
1217.88,14
1219.35,8
1220.81,9
1222.28,6
1223.74,11
1225.21,12
1226.67,6
1228.14,8
1229.6,5
1231.07,11
1232.54,7
1234,13
1235.47,10
1236.93,7
1238.4,5
1239.86,6
1241.33,10
1242.79,6
1244.26,9
1245.73,15
1247.19,6
1248.66,11
1250.12,11
1251.59,7
1253.05,5
1254.52,9
1255.98,5
1257.45,6
1258.92,6
1260.38,1
1261.85,5
1263.31,6
1264.78,7
1266.24,3
1267.71,3
1269.17,11
1270.64,5
1272.11,9
1273.57,4
1275.04,3
1276.5,9
1277.97,8
1279.43,10
1280.9,2
1282.36,7
1283.83,2
1285.3,5
1286.76,4
1288.23,6
1289.69,6
1291.16,4
1292.62,11
1294.09,5
1295.55,3
1297.02,6
1298.49,2
1299.95,4
1301.42,6
1302.88,3
1304.35,6
1305.81,2
1307.28,2
1308.74,5
1310.21,5
1311.68,4
1313.14,4
1314.61,4
1316.07,3
1317.54,2
1319,4
1320.47,5
1321.93,3
1323.4,3
1324.87,6
1326.33,4
1327.8,4
1329.26,3
1330.73,2
1332.19,2
1333.66,1
1335.12,2
1336.59,2
1338.06,4
1339.52,1
1340.99,0
1342.45,3
1343.92,3
1345.38,4
1346.85,0
1348.31,2
1349.78,2
1351.25,6
1352.71,2
1354.18,4
1355.64,3
1357.11,4
1358.57,1
1360.04,3
1361.5,1
1362.97,3
1364.44,2
1365.9,1
1367.37,1
1368.83,8
1370.3,4
1371.76,2
1373.23,4
1374.69,2
1376.16,3
1377.63,3
1379.09,0
1380.56,2
1382.02,1
1383.49,3
1384.95,4
1386.42,2
1387.88,2
1389.35,3
1390.82,4
1392.28,4
1393.75,1
1395.21,3
1396.68,6
1398.14,4
1399.61,2
1401.07,3
1402.54,2
1404.01,2
1405.47,1
1406.94,2
1408.4,2
1409.87,2
1411.33,3
1412.8,1
1414.26,2
1415.73,3
1417.2,1
1418.66,3
1420.13,5
1421.59,2
1423.06,3
1424.52,0
1425.99,0
1427.45,3
1428.92,2
1430.39,1
1431.85,2
1433.32,0
1434.78,3
1436.25,3
1437.71,2
1439.18,0
1440.64,3
1442.11,3
1443.58,4
1445.04,1
1446.51,1
1447.97,8
1449.44,5
1450.9,4
1452.37,1
1453.83,5
1455.3,3
1456.77,1
1458.23,1
1459.7,1
1461.16,6
1462.63,1
1464.09,2
1465.56,4
1467.02,1
1468.49,4
1469.96,2
1471.42,2
1472.89,2
1474.35,1
1475.82,6
1477.28,0
1478.75,4
1480.21,0
1481.68,1
1483.15,2
1484.61,1
1486.08,3
1487.54,2
1489.01,1
1490.47,2
1491.94,3
1493.41,2
1494.87,2
1496.34,2
1497.8,3
1499.27,2
1500.73,0
1502.2,1
1503.66,3
1505.13,1
1506.59,0
1508.06,4
1509.53,1
1510.99,5
1512.46,1
1513.92,2
1515.39,1
1516.85,1
1518.32,4
1519.79,1
1521.25,1
1522.72,2
1524.18,3
1525.65,2
1527.11,3
1528.58,2
1530.04,1
1531.51,4
1532.98,0
1534.44,4
1535.91,0
1537.37,2
1538.84,1
1540.3,2
1541.77,2
1543.23,1
1544.7,2
1546.17,3
1547.63,1
1549.1,1
1550.56,2
1552.03,2
1553.49,4
1554.96,0
1556.42,1
1557.89,2
1559.36,2
1560.82,1
1562.29,0
1563.75,4
1565.22,3
1566.68,2
1568.15,3
1569.61,5
1571.08,3
1572.55,3
1574.01,0
1575.48,0
1576.94,2
1578.41,3
1579.87,2
1581.34,1
1582.8,1
1584.27,0
1585.74,3
1587.2,2
1588.67,4
1590.13,0
1591.6,1
1593.06,1
1594.53,1
1595.99,1
1597.46,4
1598.93,3
1600.39,0
1601.86,3
1603.32,2
1604.79,7
1606.25,4
1607.72,0
1609.18,3
1610.65,3
1612.12,1
1613.58,5
1615.05,5
1616.51,0
1617.98,1
1619.44,0
1620.91,2
1622.37,1
1623.84,1
1625.31,2
1626.77,1
1628.24,4
1629.7,0
1631.17,0
1632.63,0
1634.1,0
1635.56,4
1637.03,3
1638.5,4
1639.96,1
1641.43,3
1642.89,2
1644.36,4
1645.82,2
1647.29,1
1648.75,1
1650.22,2
1651.69,6
1653.15,0
1654.62,0
1656.08,1
1657.55,1
1659.01,1
1660.48,2
1661.94,1
1663.41,0
1664.88,2
1666.34,1
1667.81,3
1669.27,1
1670.74,1
1672.2,1
1673.67,1
1675.13,0
1676.6,1
1678.07,0
1679.53,3
1681,3
1682.46,2
1683.93,2
1685.39,1
1686.86,1
1688.32,0
1689.79,6
1691.26,2
1692.72,2
1694.19,2
1695.65,1
1697.12,1
1698.58,0
1700.05,2
1701.51,2
1702.98,3
1704.45,1
1705.91,3
1707.38,0
1708.84,2
1710.31,2
1711.77,1
1713.24,2
1714.7,0
1716.17,5
1717.64,0
1719.1,1
1720.57,0
1722.03,2
1723.5,2
1724.96,0
1726.43,1
1727.89,0
1729.36,3
1730.83,0
1732.29,2
1733.76,1
1735.22,0
1736.69,1
1738.15,1
1739.62,0
1741.08,2
1742.55,0
1744.02,0
1745.48,1
1746.95,1
1748.41,2
1749.88,1
1751.34,0
1752.81,0
1754.27,0
1755.74,2
1757.21,3
1758.67,0
1760.14,0
1761.6,1
1763.07,0
1764.53,3
1766,1
1767.46,2
1768.93,0
1770.4,0
1771.86,1
1773.33,1
1774.79,2
1776.26,0
1777.72,0
1779.19,1
1780.65,1
1782.12,0
1783.59,0
1785.05,0
1786.52,0
1787.98,2
1789.45,1
1790.91,1
1792.38,3
1793.84,2
1795.31,3
1796.78,3
1798.24,1
1799.71,4
1801.17,1
1802.64,0
1804.1,0
1805.57,2
1807.03,3
1808.5,1
1809.97,0
1811.43,4
1812.9,1
1814.36,0
1815.83,3
1817.29,0
1818.76,2
1820.22,2
1821.69,2
1823.16,2
1824.62,1
1826.09,0
1827.55,0
1829.02,0
1830.48,1
1831.95,0
1833.41,1
1834.88,0
1836.35,1
1837.81,2
1839.28,2
1840.74,1
1842.21,0
1843.67,2
1845.14,1
1846.6,1
1848.07,2
1849.54,2
1851,0
1852.47,0
1853.93,1
1855.4,1
1856.86,1
1858.33,3
1859.79,4
1861.26,2
1862.73,1
1864.19,0
1865.66,1
1867.12,0
1868.59,0
1870.05,0
1871.52,1
1872.98,0
1874.45,0
1875.92,1
1877.38,1
1878.85,0
1880.31,2
1881.78,3
1883.24,0
1884.71,1
1886.17,0
1887.64,2
1889.11,1
1890.57,3
1892.04,1
1893.5,0
1894.97,2
1896.43,4
1897.9,1
1899.36,2
1900.83,0
1902.3,4
1903.76,0
1905.23,2
1906.69,1
1908.16,1
1909.62,0
1911.09,1
1912.55,1
1914.02,1
1915.49,0
1916.95,0
1918.42,0
1919.88,0
1921.35,1
1922.81,1
1924.28,1
1925.74,1
1927.21,0
1928.68,1
1930.14,0
1931.61,1
1933.07,1
1934.54,0
1936,0
1937.47,2
1938.94,1
1940.4,1
1941.87,0
1943.33,0
1944.8,1
1946.26,0
1947.73,1
1949.19,0
1950.66,2
1952.13,0
1953.59,0
1955.06,1
1956.52,0
1957.99,0
1959.45,1
1960.92,0
1962.38,0
1963.85,0
1965.32,1
1966.78,1
1968.25,0
1969.71,1
1971.18,2
1972.64,1
1974.11,0
1975.57,0
1977.04,0
1978.51,0
1979.97,0
1981.44,0
1982.9,0
1984.37,1
1985.83,0
1987.3,0
1988.76,0
1990.23,0
1991.7,1
1993.16,0
1994.63,0
1996.09,0
1997.56,0
1999.02,0
2000.49,0
2001.95,1
2003.42,0
2004.89,0
2006.35,0
2007.82,0
2009.28,0
2010.75,0
2012.21,0
2013.68,0
2015.14,0
2016.61,0
2018.08,0
2019.54,1
2021.01,1
2022.47,0
2023.94,0
2025.4,0
2026.87,0
2028.33,0
2029.8,0
2031.27,0
2032.73,0
2034.2,0
2035.66,0
2037.13,0
2038.59,1
2040.06,1
2041.52,0
2042.99,0
2044.46,0
2045.92,1
2047.39,0
2048.85,0
2050.32,1
2051.78,0
2053.25,0
2054.71,0
2056.18,0
2057.65,0
2059.11,0
2060.58,0
2062.04,1
2063.51,0
2064.97,0
2066.44,0
2067.9,0
2069.37,0
2070.84,0
2072.3,0
2073.77,0
2075.23,0
2076.7,0
2078.16,2
2079.63,0
2081.09,0
2082.56,0
2084.03,0
2085.49,0
2086.96,1
2088.42,0
2089.89,1
2091.35,1
2092.82,1
2094.28,0
2095.75,0
2097.22,0
2098.68,0
2100.15,1
2101.61,0
2103.08,0
2104.54,0
2106.01,0
2107.47,0
2108.94,0
2110.41,0
2111.87,0
2113.34,0
2114.8,0
2116.27,0
2117.73,1
2119.2,0
2120.66,0
2122.13,0
2123.6,0
2125.06,0
2126.53,0
2127.99,1
2129.46,0
2130.92,0
2132.39,0
2133.85,1
2135.32,0
2136.79,0
2138.25,0
2139.72,0
2141.18,0
2142.65,1
2144.11,0
2145.58,0
2147.04,1
2148.51,0
2149.98,0
2151.44,0
2152.91,0
2154.37,0
2155.84,0
2157.3,0
2158.77,0
2160.23,0
2161.7,0
2163.17,0
2164.63,1
2166.1,0
2167.56,0
2169.03,0
2170.49,0
2171.96,0
2173.42,0
2174.89,0
2176.36,0
2177.82,0
2179.29,0
2180.75,0
2182.22,0
2183.68,0
2185.15,1
2186.61,0
2188.08,0
2189.55,0
2191.01,0
2192.48,0
2193.94,1
2195.41,0
2196.87,0
2198.34,0
2199.8,0
2201.27,1
2202.74,1
2204.2,0
2205.67,0
2207.13,0
2208.6,0
2210.06,0
2211.53,0
2212.99,0
2214.46,0
2215.93,0
2217.39,0
2218.86,0
2220.32,0
2221.79,0
2223.25,0
2224.72,1
2226.18,0
2227.65,0
2229.12,0
2230.58,0
2232.05,0
2233.51,0
2234.98,0
2236.44,0
2237.91,0
2239.37,1
2240.84,0
2242.31,0
2243.77,0
2245.24,1
2246.7,0
2248.17,0
2249.63,0
2251.1,0
2252.56,0
2254.03,1
2255.5,0
2256.96,0
2258.43,0
2259.89,0
2261.36,0
2262.82,1
2264.29,0
2265.75,0
2267.22,0
2268.69,0
2270.15,0
2271.62,0
2273.08,0
2274.55,1
2276.01,0
2277.48,0
2278.94,0
2280.41,0
2281.88,0
2283.34,0
2284.81,0
2286.27,0
2287.74,0
2289.2,0
2290.67,0
2292.13,0
2293.6,0
2295.07,0
2296.53,0
2298,1
2299.46,0
2300.93,0
2302.39,0
2303.86,0
2305.32,0
2306.79,0
2308.26,0
2309.72,0
2311.19,0
2312.65,0
2314.12,0
2315.58,1
2317.05,0
2318.51,0
2319.98,0
2321.45,0
2322.91,0
2324.38,0
2325.84,0
2327.31,1
2328.77,1
2330.24,0
2331.7,1
2333.17,0
2334.64,1
2336.1,0
2337.57,0
2339.03,0
2340.5,0
2341.96,0
2343.43,0
2344.9,1
2346.36,0
2347.83,0
2349.29,0
2350.76,0
2352.22,0
2353.69,0
2355.15,2
2356.62,0
2358.08,0
2359.55,0
2361.02,1
2362.48,0
2363.95,0
2365.41,0
2366.88,0
2368.34,0
2369.81,0
2371.28,0
2372.74,0
2374.21,0
2375.67,0
2377.14,0
2378.6,0
2380.07,0
2381.53,0
2383,1
2384.47,0
2385.93,0
2387.4,0
2388.86,0
2390.33,0
2391.79,0
2393.26,0
2394.72,0
2396.19,0
2397.66,0
2399.12,0
2400.59,0
2402.05,0
2403.52,0
2404.98,1
2406.45,1
2407.91,1
2409.38,0
2410.85,1
2412.31,0
2413.78,0
2415.24,0
2416.71,1
2418.17,1
2419.64,0
2421.1,0
2422.57,0
2424.04,0
2425.5,0
2426.97,0
2428.43,0
2429.9,0
2431.36,0
2432.83,0
2434.29,0
2435.76,0
2437.23,0
2438.69,1
2440.16,0
2441.62,0
2443.09,0
2444.55,0
2446.02,1
2447.48,0
2448.95,0
2450.42,1
2451.88,0
2453.35,0
2454.81,1
2456.28,0
2457.74,0
2459.21,0
2460.67,0
2462.14,0
2463.61,0
2465.07,0
2466.54,0
2468,0
2469.47,0
2470.93,0
2472.4,0
2473.86,0
2475.33,0
2476.8,0
2478.26,0
2479.73,0
2481.19,0
2482.66,0
2484.12,0
2485.59,0
2487.05,0
2488.52,0
2489.99,1
2491.45,0
2492.92,1
2494.38,0
2495.85,0
2497.31,0
2498.78,0
2500.24,0
2501.71,0
2503.18,0
2504.64,1
2506.11,0
2507.57,0
2509.04,0
2510.5,0
2511.97,1
2513.43,0
2514.9,0
2516.37,0
2517.83,0
2519.3,0
2520.76,0
2522.23,0
2523.69,0
2525.16,1
2526.62,0
2528.09,0
2529.56,0
2531.02,0
2532.49,0
2533.95,0
